# Created by the starfile Python package (version 0.5.13) at 19:53:11 on 21/07/2025


data_session1_TS_1

loop_
_rlnMicrographName #1
_rlnTomoXTilt #2
_rlnTomoYTilt #3
_rlnTomoZRot #4
_rlnTomoXShiftAngst #5
_rlnTomoYShiftAngst #6
_rlnDefocusU #7
_rlnDefocusV #8
_rlnDefocusAngle #9
_rlnMicrographPreExposure #10
_rlnTomoTiltMovieFrameCount #11
_rlnTomoNominalStageTiltAngle #12
_rlnTomoNominalTiltAxisAngle #13
_rlnTomoNominalDefocus #14
_rlnAccumMotionTotal #15
_rlnAccumMotionEarly #16
_rlnAccumMotionLate #17
_rlnCtfFigureOfMerit #18
_rlnCtfMaxResolution #19
_rlnCtfIceRingDensity #20
1@input/TS_1.mrcs	0	-45.000000	0.000000	0.000000	0.000000	0.000000	0.000000	-0.000000	3.870968	1	0	0	0.000000	0	0	0	0	0	0
2@input/TS_1.mrcs	0	-42.000000	0.000000	0.000000	0.000000	0.000000	0.000000	-0.000000	7.741935	1	0	0	0.000000	0	0	1	0	0	0
3@input/TS_1.mrcs	0	-39.000000	0.000000	0.000000	0.000000	0.000000	0.000000	-0.000000	11.612903	1	0	0	0.000000	0	0	2	0	0	0
4@input/TS_1.mrcs	0	-36.000000	0.000000	0.000000	0.000000	0.000000	0.000000	-0.000000	15.483871	1	0	0	0.000000	0	0	3	0	0	0
5@input/TS_1.mrcs	0	-33.000000	0.000000	0.000000	0.000000	0.000000	0.000000	-0.000000	19.354839	1	0	0	0.000000	0	0	4	0	0	0
6@input/TS_1.mrcs	0	-30.000000	0.000000	0.000000	0.000000	0.000000	0.000000	-0.000000	23.225806	1	0	0	0.000000	0	0	5	0	0	0
7@input/TS_1.mrcs	0	-27.000000	0.000000	0.000000	0.000000	0.000000	0.000000	-0.000000	27.096774	1	0	0	0.000000	0	0	6	0	0	0
8@input/TS_1.mrcs	0	-24.000000	0.000000	0.000000	0.000000	0.000000	0.000000	-0.000000	30.967742	1	0	0	0.000000	0	0	7	0	0	0
9@input/TS_1.mrcs	0	-21.000000	0.000000	0.000000	0.000000	0.000000	0.000000	-0.000000	34.838710	1	0	0	0.000000	0	0	8	0	0	0
10@input/TS_1.mrcs	0	-18.000000	0.000000	0.000000	0.000000	0.000000	0.000000	-0.000000	38.709677	1	0	0	0.000000	0	0	9	0	0	0
11@input/TS_1.mrcs	0	-15.000000	0.000000	0.000000	0.000000	0.000000	0.000000	-0.000000	42.580645	1	0	0	0.000000	0	0	10	0	0	0
12@input/TS_1.mrcs	0	-12.000000	0.000000	0.000000	0.000000	0.000000	0.000000	-0.000000	46.451613	1	0	0	0.000000	0	0	11	0	0	0
13@input/TS_1.mrcs	0	-9.000000	0.000000	0.000000	0.000000	0.000000	0.000000	-0.000000	50.322581	1	0	0	0.000000	0	0	12	0	0	0
14@input/TS_1.mrcs	0	-6.000000	0.000000	0.000000	0.000000	0.000000	0.000000	-0.000000	54.193548	1	0	0	0.000000	0	0	13	0	0	0
15@input/TS_1.mrcs	0	-3.000000	0.000000	0.000000	0.000000	0.000000	0.000000	-0.000000	58.064516	1	0	0	0.000000	0	0	14	0	0	0
16@input/TS_1.mrcs	0	0.000000	0.000000	0.000000	0.000000	0.000000	0.000000	-0.000000	61.935484	1	0	0	0.000000	0	0	15	0	0	0
17@input/TS_1.mrcs	0	3.000000	0.000000	0.000000	0.000000	0.000000	0.000000	-0.000000	65.806452	1	0	0	0.000000	0	0	16	0	0	0
18@input/TS_1.mrcs	0	6.000000	0.000000	0.000000	0.000000	0.000000	0.000000	-0.000000	69.677419	1	0	0	0.000000	0	0	17	0	0	0
19@input/TS_1.mrcs	0	9.000000	0.000000	0.000000	0.000000	0.000000	0.000000	-0.000000	73.548387	1	0	0	0.000000	0	0	18	0	0	0
20@input/TS_1.mrcs	0	12.000000	0.000000	0.000000	0.000000	0.000000	0.000000	-0.000000	77.419355	1	0	0	0.000000	0	0	19	0	0	0
21@input/TS_1.mrcs	0	15.000000	0.000000	0.000000	0.000000	0.000000	0.000000	-0.000000	81.290323	1	0	0	0.000000	0	0	20	0	0	0
22@input/TS_1.mrcs	0	18.000000	0.000000	0.000000	0.000000	0.000000	0.000000	-0.000000	85.161290	1	0	0	0.000000	0	0	21	0	0	0
23@input/TS_1.mrcs	0	21.000000	0.000000	0.000000	0.000000	0.000000	0.000000	-0.000000	89.032258	1	0	0	0.000000	0	0	22	0	0	0
24@input/TS_1.mrcs	0	24.000000	0.000000	0.000000	0.000000	0.000000	0.000000	-0.000000	92.903226	1	0	0	0.000000	0	0	23	0	0	0
25@input/TS_1.mrcs	0	27.000000	0.000000	0.000000	0.000000	0.000000	0.000000	-0.000000	96.774194	1	0	0	0.000000	0	0	24	0	0	0
26@input/TS_1.mrcs	0	30.000000	0.000000	0.000000	0.000000	0.000000	0.000000	-0.000000	100.645161	1	0	0	0.000000	0	0	25	0	0	0
27@input/TS_1.mrcs	0	33.000000	0.000000	0.000000	0.000000	0.000000	0.000000	-0.000000	104.516129	1	0	0	0.000000	0	0	26	0	0	0
28@input/TS_1.mrcs	0	36.000000	0.000000	0.000000	0.000000	0.000000	0.000000	-0.000000	108.387097	1	0	0	0.000000	0	0	27	0	0	0
29@input/TS_1.mrcs	0	39.000000	0.000000	0.000000	0.000000	0.000000	0.000000	-0.000000	112.258065	1	0	0	0.000000	0	0	28	0	0	0
30@input/TS_1.mrcs	0	42.000000	0.000000	0.000000	0.000000	0.000000	0.000000	-0.000000	116.129032	1	0	0	0.000000	0	0	29	0	0	0
31@input/TS_1.mrcs	0	45.000000	0.000000	0.000000	0.000000	0.000000	0.000000	-0.000000	120.000000	1	0	0	0.000000	0	0	30	0	0	0


